Date,Open,High,Low,Close,Adj Close,Volume
2022-01-03,122.44000244140625,123.0,119.29000091552734,120.81999969482422,117.96095275878906,234900
2022-01-04,121.0,122.91999816894531,119.95999908447266,121.37999725341797,118.50770568847656,337300
2022-01-05,121.23999786376953,124.13999938964844,121.23999786376953,123.05999755859375,120.14794921875,367600
2022-01-06,123.54000091552734,124.0,122.01000213623047,122.55000305175781,119.6500244140625,231900
2022-01-07,122.72000122070312,123.79000091552734,121.97000122070312,123.68000030517578,120.75328063964844,335100
2022-01-10,122.94999694824219,123.88999938964844,121.68000030517578,122.05000305175781,119.16185760498047,398400
2022-01-11,122.27999877929688,122.9800033569336,120.7300033569336,122.5199966430664,119.62071990966797,135500
2022-01-12,122.31999969482422,123.0,120.62000274658203,121.30000305175781,118.42960357666016,206600
2022-01-13,121.66999816894531,122.33000183105469,120.37000274658203,121.66999816894531,118.79084014892578,193200
2022-01-14,121.27999877929688,121.48999786376953,119.87000274658203,121.18000030517578,118.31243896484375,179000
2022-01-18,120.61000061035156,121.4000015258789,118.83000183105469,120.37000274658203,117.5216064453125,232500
2022-01-19,120.76000213623047,121.9000015258789,120.5,121.41999816894531,118.54676055908203,252600
2022-01-20,120.81999969482422,122.30999755859375,118.80999755859375,118.83000183105469,116.01805877685547,297700
2022-01-21,119.22000122070312,120.06999969482422,115.83000183105469,116.37999725341797,113.62600708007812,351800
2022-01-24,115.58999633789062,117.25,114.02999877929688,117.02999877929688,114.2606430053711,329300
2022-01-25,114.72000122070312,116.94000244140625,113.0999984741211,116.02999877929688,113.28430938720703,470000
2022-01-26,115.77999877929688,117.55000305175781,114.41000366210938,115.19000244140625,112.46418762207031,1542500
2022-01-27,115.77999877929688,118.30000305175781,112.66999816894531,113.6500015258789,110.96062469482422,263900
2022-01-28,113.83000183105469,115.0999984741211,112.44999694824219,115.05000305175781,112.32750701904297,323100
2022-01-31,115.01000213623047,117.33999633789062,114.2300033569336,117.30000305175781,114.52425384521484,486300
2022-02-01,117.08999633789062,118.93000030517578,116.44999694824219,117.4800033569336,114.69998931884766,214000
2022-02-02,116.69999694824219,117.0199966430664,116.01000213623047,116.62000274658203,114.2298355102539,363600
2022-02-03,116.44000244140625,117.37999725341797,114.91000366210938,115.19000244140625,112.82913970947266,167700
2022-02-04,114.68000030517578,116.02999877929688,113.66000366210938,115.26000213623047,112.89769744873047,242700
2022-02-07,115.62000274658203,116.02999877929688,114.33000183105469,114.73999786376953,112.38835906982422,263300
2022-02-08,115.0,116.44000244140625,114.73999786376953,116.05000305175781,113.67151641845703,204200
2022-02-09,117.08000183105469,117.66000366210938,116.19999694824219,116.55000305175781,114.16127014160156,295900
2022-02-10,115.5199966430664,117.25,113.66000366210938,114.61000061035156,112.26103210449219,267100
2022-02-11,115.04000091552734,116.44000244140625,112.87000274658203,113.70999908447266,111.37947845458984,230600
2022-02-14,113.70999908447266,114.51000213623047,112.44000244140625,114.0999984741211,111.761474609375,266600
2022-02-15,114.66000366210938,116.12999725341797,113.4000015258789,114.0999984741211,111.761474609375,263000
2022-02-16,114.25,115.08000183105469,113.0999984741211,114.69999694824219,112.34917449951172,271400
2022-02-17,113.95999908447266,116.26000213623047,113.31999969482422,115.61000061035156,113.24052429199219,362400
2022-02-18,116.27999877929688,121.5199966430664,114.41999816894531,118.44000244140625,116.01252746582031,462300
2022-02-22,118.5,120.18000030517578,117.31999969482422,119.0999984741211,116.65900421142578,437200
2022-02-23,119.73999786376953,120.30999755859375,117.5999984741211,117.69000244140625,115.27790069580078,321100
2022-02-24,116.2699966430664,117.33999633789062,114.72000122070312,116.87000274658203,114.4747085571289,349300
2022-02-25,117.16000366210938,121.5999984741211,116.81999969482422,120.97000122070312,118.49067687988281,260100
2022-02-28,119.47000122070312,122.02999877929688,119.27999877929688,121.87999725341797,119.38201904296875,316300
2022-03-01,121.95999908447266,122.94000244140625,118.52999877929688,119.0999984741211,116.65900421142578,325700
2022-03-02,119.08999633789062,120.05999755859375,118.0,118.37999725341797,115.9537582397461,435100
2022-03-03,118.87999725341797,119.75,117.41000366210938,119.33000183105469,116.88428497314453,196100
2022-03-04,118.05000305175781,120.38999938964844,117.69000244140625,120.19000244140625,117.7266616821289,206700
2022-03-07,119.30999755859375,120.3499984741211,116.44999694824219,116.5199966430664,114.13187408447266,337300
2022-03-08,116.95999908447266,118.29000091552734,110.04000091552734,110.19000244140625,107.93162536621094,382800
2022-03-09,111.18000030517578,114.37999725341797,111.18000030517578,113.2699966430664,110.948486328125,224800
2022-03-10,111.83000183105469,113.66000366210938,111.44000244140625,112.26000213623047,109.95919036865234,223200
2022-03-11,113.30000305175781,113.72000122070312,112.23999786376953,112.30000305175781,109.99835968017578,237100
2022-03-14,112.81999969482422,115.91000366210938,112.7699966430664,114.5199966430664,112.17288208007812,173800
2022-03-15,115.08999633789062,116.93000030517578,114.08999633789062,116.80999755859375,114.41593933105469,199500
2022-03-16,117.72000122070312,119.11000061035156,114.36000061035156,116.98999786376953,114.59223937988281,266800
2022-03-17,117.23999786376953,118.51000213623047,115.2699966430664,118.41000366210938,115.98314666748047,163300
2022-03-18,118.0999984741211,118.83000183105469,116.2699966430664,117.73999786376953,115.32687377929688,286800
2022-03-21,117.7300033569336,118.66999816894531,116.66999816894531,118.66000366210938,116.22801971435547,309100
2022-03-22,119.77999877929688,120.45999908447266,117.36000061035156,117.66999816894531,115.25830841064453,294100
2022-03-23,117.80000305175781,118.0999984741211,114.04000091552734,114.66999816894531,112.31979370117188,256800
2022-03-24,115.0,116.22000122070312,114.0,115.8499984741211,113.4756088256836,210100
2022-03-25,116.8499984741211,117.26000213623047,116.0,117.23999786376953,114.83712005615234,148000
2022-03-28,117.43000030517578,117.56999969482422,115.01000213623047,116.48999786376953,114.10249328613281,167300
2022-03-29,117.51000213623047,119.58999633789062,117.51000213623047,119.31999969482422,116.8744888305664,184700
2022-03-30,119.56999969482422,119.56999969482422,118.23999786376953,118.81999969482422,116.3847427368164,156600
2022-03-31,118.4000015258789,119.83000183105469,117.47000122070312,117.5,115.091796875,211200
2022-04-01,118.1500015258789,119.63999938964844,117.29000091552734,119.0199966430664,116.58063507080078,400800
2022-04-04,118.72000122070312,118.72000122070312,115.19999694824219,118.41000366210938,115.98314666748047,286300
2022-04-05,117.6500015258789,119.20999908447266,117.58999633789062,117.7300033569336,115.31708526611328,225300
2022-04-06,117.26000213623047,118.91999816894531,116.3499984741211,118.33999633789062,115.91458129882812,194300
2022-04-07,117.91000366210938,120.5999984741211,116.62999725341797,120.0,117.54055786132812,331900
2022-04-08,119.80999755859375,122.2300033569336,119.80999755859375,121.41000366210938,118.9216537475586,305300
2022-04-11,121.12999725341797,122.30000305175781,118.95999908447266,118.95999908447266,116.52186584472656,208000
2022-04-12,119.2300033569336,120.19000244140625,116.4000015258789,117.01000213623047,114.6118392944336,187400
2022-04-13,116.88999938964844,118.0,116.88999938964844,117.87999725341797,115.4640121459961,120200
2022-04-14,117.41999816894531,118.69999694824219,116.95999908447266,117.4000015258789,114.99385070800781,163300
2022-04-18,116.77999877929688,117.54000091552734,113.58000183105469,114.01000213623047,111.67332458496094,137100
2022-04-19,114.56999969482422,117.63999938964844,113.51000213623047,117.2300033569336,114.82733154296875,221600
2022-04-20,117.9800033569336,119.75,117.33000183105469,119.5,117.0508041381836,141200
2022-04-21,120.25,120.3499984741211,118.33999633789062,118.94000244140625,116.50228118896484,178200
2022-04-22,118.5999984741211,118.5999984741211,116.43000030517578,116.62000274658203,114.2298355102539,179900
2022-04-25,116.5,116.5,112.18000030517578,115.4000015258789,113.03483581542969,379600
2022-04-26,114.37000274658203,115.3499984741211,110.44000244140625,110.58000183105469,108.67147064208984,295300
2022-04-27,110.94000244140625,112.98999786376953,110.56999969482422,111.0999984741211,109.18248748779297,231500
2022-04-28,111.18000030517578,112.23999786376953,109.55000305175781,112.0999984741211,110.16522979736328,289200
2022-04-29,112.5199966430664,116.44999694824219,112.5199966430664,114.83000183105469,112.8481216430664,640200
2022-05-02,115.41999816894531,116.97000122070312,112.06999969482422,113.38999938964844,111.43297576904297,457000
2022-05-03,112.98999786376953,115.37000274658203,112.63999938964844,113.83000183105469,111.8653793334961,225400
2022-05-04,113.36000061035156,116.77999877929688,112.72000122070312,116.75,114.73497772216797,346900
2022-05-05,115.48999786376953,116.18000030517578,111.87000274658203,112.80000305175781,110.85315704345703,179000
2022-05-06,111.69000244140625,111.72000122070312,109.76000213623047,111.2300033569336,109.31026458740234,331800
2022-05-09,110.0,111.0999984741211,106.66000366210938,107.01000213623047,105.1630859375,276700
2022-05-10,107.55999755859375,108.62999725341797,103.94000244140625,104.54000091552734,102.7357177734375,411800
2022-05-11,104.38999938964844,107.41999816894531,103.51000213623047,104.05999755859375,102.26399993896484,297800
2022-05-12,103.72000122070312,106.66000366210938,103.25,106.44999694824219,104.61274719238281,389300
2022-05-13,107.0,108.29000091552734,106.76000213623047,107.51000213623047,105.65446472167969,226900
2022-05-16,107.29000091552734,108.41999816894531,106.3499984741211,108.33000183105469,106.4603042602539,202500
2022-05-17,110.12999725341797,110.38999938964844,108.22000122070312,108.95999908447266,107.07941436767578,311200
2022-05-18,107.98999786376953,108.9000015258789,103.56999969482422,104.06999969482422,102.2738265991211,325900
2022-05-19,103.38999938964844,104.5999984741211,102.26000213623047,103.48999786376953,101.7038345336914,357000
2022-05-20,104.9800033569336,105.30000305175781,97.19000244140625,99.72000122070312,97.99890899658203,796300
2022-05-23,100.94999694824219,104.58999633789062,99.66999816894531,104.22000122070312,102.42123413085938,545200
2022-05-24,104.5,105.62000274658203,102.81999969482422,104.94999694824219,103.13863372802734,567400
2022-05-25,103.4800033569336,105.2699966430664,102.4800033569336,104.44999694824219,102.64726257324219,493400
2022-05-26,105.69999694824219,106.94999694824219,105.27999877929688,106.52999877929688,104.69136047363281,188200
2022-05-27,106.95999908447266,108.93000030517578,106.95999908447266,108.88999938964844,107.01062774658203,178000
2022-05-31,108.08000183105469,109.43000030517578,106.3499984741211,107.08999633789062,105.24169921875,306100
2022-06-01,107.48999786376953,107.91999816894531,105.62999725341797,107.25,105.39894104003906,313900
2022-06-02,107.5999984741211,110.02999877929688,106.83000183105469,109.83000183105469,107.93441772460938,145400
2022-06-03,108.72000122070312,109.76000213623047,108.23999786376953,108.80000305175781,106.92219543457031,139800
2022-06-06,109.58999633789062,110.80999755859375,108.33000183105469,109.25,107.36441802978516,207400
2022-06-07,108.63999938964844,110.33999633789062,108.4000015258789,110.18000030517578,108.27837371826172,132900
2022-06-08,108.95999908447266,109.38999938964844,107.26000213623047,107.70999908447266,105.85100555419922,157700
2022-06-09,106.7699966430664,107.69999694824219,105.80000305175781,105.83000183105469,104.00345611572266,193800
2022-06-10,103.58000183105469,105.88999938964844,103.12999725341797,105.19999694824219,103.38432312011719,266800
2022-06-13,102.87000274658203,103.2300033569336,101.05000305175781,102.01000213623047,100.24937438964844,252100
2022-06-14,101.61000061035156,102.27999877929688,98.38999938964844,99.5199966430664,97.80235290527344,227900
2022-06-15,100.30000305175781,101.23999786376953,98.54000091552734,100.37000274658203,98.63768005371094,283300
2022-06-16,98.88999938964844,98.88999938964844,94.02999877929688,94.7699966430664,93.13433074951172,620400
2022-06-17,94.48999786376953,98.45999908447266,94.4800033569336,97.5,95.81721496582031,458500
2022-06-21,97.9800033569336,98.69999694824219,97.08999633789062,97.19000244140625,95.5125732421875,236100
2022-06-22,96.37000274658203,98.83999633789062,96.23999786376953,98.45999908447266,96.76065063476562,228200
2022-06-23,98.62000274658203,99.31999969482422,97.16999816894531,98.93000030517578,97.2225341796875,152100
2022-06-24,100.05000305175781,102.6500015258789,99.66999816894531,102.62000274658203,100.84884643554688,327300
2022-06-27,102.62000274658203,104.1500015258789,101.98999786376953,103.56999969482422,101.78245544433594,185200
2022-06-28,104.22000122070312,104.37000274658203,101.9800033569336,102.69999694824219,100.9274673461914,280200
2022-06-29,102.4800033569336,103.88999938964844,101.33999633789062,103.38999938964844,101.60556030273438,220900
2022-06-30,102.33000183105469,103.5,101.37000274658203,103.20999908447266,101.42866516113281,205900
2022-07-01,103.33999633789062,104.66999816894531,102.16000366210938,104.48999786376953,102.68656921386719,262300
2022-07-05,103.33999633789062,103.33999633789062,100.97000122070312,102.91999816894531,101.14366149902344,230200
2022-07-06,103.52999877929688,103.55000305175781,101.51000213623047,102.63999938964844,100.86851501464844,286400
2022-07-07,102.44999694824219,103.30000305175781,101.8499984741211,103.11000061035156,101.33039855957031,221200
2022-07-08,102.7300033569336,103.02999877929688,100.0,100.01000213623047,98.28389739990234,208100
2022-07-11,99.80999755859375,100.12000274658203,98.47000122070312,99.55000305175781,97.83184051513672,186900
2022-07-12,99.47000122070312,101.8499984741211,99.22000122070312,100.51000213623047,98.77527618408203,284300
2022-07-13,99.7300033569336,101.30999755859375,99.51000213623047,100.66999816894531,98.93251037597656,202500
2022-07-14,99.58000183105469,99.91000366210938,98.33999633789062,99.30000305175781,97.5861587524414,199800
2022-07-15,100.80999755859375,100.80999755859375,99.20999908447266,100.01000213623047,98.28389739990234,195300
2022-07-18,100.56999969482422,100.94999694824219,97.69999694824219,98.0999984741211,96.4068603515625,179900
2022-07-19,98.55000305175781,101.08999633789062,98.55000305175781,101.02999877929688,99.28629302978516,635400
2022-07-20,100.66999816894531,102.4800033569336,100.66000366210938,101.81999969482422,100.06265258789062,458900
2022-07-21,101.91000366210938,103.5999984741211,101.58000183105469,103.4800033569336,101.69401550292969,138900
2022-07-22,103.61000061035156,103.9800033569336,102.33000183105469,103.5999984741211,101.81193542480469,214600
2022-07-25,103.72000122070312,104.51000213623047,102.91000366210938,103.91999816894531,102.12641143798828,267400
2022-07-26,103.11000061035156,103.87999725341797,101.87999725341797,103.83000183105469,102.41246032714844,262200
2022-07-27,104.23999786376953,106.54000091552734,103.63999938964844,106.02999877929688,104.58242797851562,229200
2022-07-28,106.08000183105469,107.81999969482422,105.1500015258789,107.81999969482422,106.34799194335938,249800
2022-07-29,107.16999816894531,109.48999786376953,106.38999938964844,107.76000213623047,106.2887954711914,424400
2022-08-01,106.30000305175781,108.6500015258789,105.61000061035156,108.19999694824219,106.72278594970703,277000
2022-08-02,107.86000061035156,108.04000091552734,105.83000183105469,106.58999633789062,105.13477325439453,209700
2022-08-03,107.33000183105469,108.81999969482422,106.44000244140625,107.63999938964844,106.17044830322266,260700
2022-08-04,107.19999694824219,107.22000122070312,105.86000061035156,106.44000244140625,104.98682403564453,292600
2022-08-05,105.66999816894531,106.66999816894531,105.08999633789062,105.6500015258789,104.20761108398438,174600
2022-08-08,106.12999725341797,108.0,106.01000213623047,107.2699966430664,105.80548858642578,219300
2022-08-09,107.76000213623047,108.0,106.48999786376953,107.2699966430664,105.80548858642578,249200
2022-08-10,109.2300033569336,110.73999786376953,108.05000305175781,109.7699966430664,108.27134704589844,152900
2022-08-11,110.63999938964844,111.29000091552734,109.55000305175781,109.62999725341797,108.13327026367188,171100
2022-08-12,110.5199966430664,111.1500015258789,110.13999938964844,111.08000183105469,109.5634765625,201300
2022-08-15,110.68000030517578,112.43000030517578,110.68000030517578,111.91000366210938,110.38214874267578,146500
2022-08-16,111.16000366210938,112.26000213623047,110.70999908447266,112.06999969482422,110.53996276855469,187700
2022-08-17,111.0,111.47000122070312,110.05000305175781,111.02999877929688,109.51416015625,173100
2022-08-18,110.94000244140625,111.13999938964844,109.97000122070312,111.02999877929688,109.51416015625,197300
2022-08-19,111.16999816894531,111.26000213623047,109.55000305175781,110.16000366210938,108.65603637695312,253400
2022-08-22,109.16999816894531,109.30999755859375,107.75,107.91999816894531,106.44661712646484,178300
2022-08-23,107.87999725341797,108.44000244140625,106.01000213623047,106.88999938964844,105.43067932128906,178000
2022-08-24,107.37000274658203,108.06999969482422,106.72000122070312,107.44999694824219,105.98302459716797,183000
2022-08-25,107.54000091552734,108.97000122070312,107.54000091552734,108.97000122070312,107.48229217529297,132900
2022-08-26,109.55000305175781,109.55000305175781,104.16999816894531,104.41000366210938,102.98454284667969,152000
2022-08-29,103.97000122070312,104.47000122070312,102.79000091552734,104.0,102.58013916015625,146800
2022-08-30,104.44000244140625,104.66999816894531,102.72000122070312,104.05000305175781,102.62945556640625,148900
2022-08-31,104.37999725341797,104.76000213623047,102.75,102.80999755859375,101.40637969970703,180300
2022-09-01,102.36000061035156,102.87000274658203,101.33000183105469,102.62000274658203,101.21897888183594,212200
2022-09-02,103.33999633789062,104.18000030517578,100.72000122070312,101.43000030517578,100.04521942138672,206000
2022-09-06,101.26000213623047,101.87999725341797,99.80999755859375,100.33000183105469,98.96025085449219,159300
2022-09-07,100.63999938964844,103.62999725341797,100.62000274658203,103.23999786376953,101.83050537109375,164200
2022-09-08,102.26000213623047,105.0199966430664,102.12999725341797,104.88999938964844,103.4579849243164,137900
2022-09-09,105.68000030517578,106.81999969482422,104.68000030517578,106.41000366210938,104.95722961425781,197100
2022-09-12,107.18000030517578,108.2699966430664,106.73999786376953,107.11000061035156,105.64767456054688,154500
2022-09-13,105.16000366210938,105.75,103.9800033569336,104.0199966430664,102.599853515625,271700
2022-09-14,103.80999755859375,104.30999755859375,102.44999694824219,103.58000183105469,102.1658706665039,250700
2022-09-15,103.25,105.4000015258789,103.22000122070312,105.19999694824219,103.76375579833984,423000
2022-09-16,104.33000183105469,104.33000183105469,101.4000015258789,102.63999938964844,101.23870849609375,579400
2022-09-19,101.8499984741211,104.55000305175781,101.83999633789062,104.52999877929688,103.1029052734375,194400
2022-09-20,103.44999694824219,103.44999694824219,100.69000244140625,101.18000030517578,99.79863739013672,157500
2022-09-21,101.79000091552734,102.27999877929688,99.62999725341797,99.66999816894531,98.30924987792969,173500
2022-09-22,99.13999938964844,99.13999938964844,97.2699966430664,98.12000274658203,96.7804183959961,199200
2022-09-23,96.93000030517578,98.30999755859375,96.93000030517578,98.08000183105469,96.74095916748047,274900
2022-09-26,97.5,98.44999694824219,96.43000030517578,97.41000366210938,96.08010864257812,364000
2022-09-27,97.98999786376953,98.80000305175781,95.2300033569336,96.05999755859375,94.74853515625,238600
2022-09-28,96.75,98.5,96.05000305175781,98.23999786376953,96.8987808227539,237000
2022-09-29,97.22000122070312,97.26000213623047,96.2699966430664,96.7699966430664,95.44884490966797,206400
2022-09-30,96.12000274658203,97.76000213623047,94.87000274658203,95.02999877929688,93.73259735107422,471500
2022-10-03,96.45999908447266,98.0199966430664,95.66000366210938,97.44000244140625,96.10970306396484,274200
2022-10-04,99.08999633789062,99.83000183105469,98.51000213623047,99.2300033569336,97.8752670288086,262900
2022-10-05,98.08999633789062,99.4800033569336,97.02999877929688,98.18000030517578,96.839599609375,201300
2022-10-06,97.66000366210938,98.19999694824219,96.31999969482422,97.73999786376953,96.40560150146484,202100
2022-10-07,96.93000030517578,96.93000030517578,93.5999984741211,93.9800033569336,92.69694519042969,119000
2022-10-10,94.38999938964844,95.47000122070312,93.91000366210938,94.37000274658203,93.08161163330078,177300
2022-10-11,93.80000305175781,95.6500015258789,93.30000305175781,94.73999786376953,93.4465560913086,369800
2022-10-12,94.76000213623047,94.76000213623047,93.2699966430664,93.37000274658203,92.09526824951172,147400
2022-10-13,91.06999969482422,95.02999877929688,90.2300033569336,94.55999755859375,93.2690200805664,237000
2022-10-14,95.4000015258789,95.91999816894531,94.11000061035156,95.08000183105469,93.78192138671875,319300
2022-10-17,96.0199966430664,97.37000274658203,96.0199966430664,97.31999969482422,95.9913330078125,344900
2022-10-18,99.25,99.9800033569336,98.0999984741211,99.27999877929688,97.9245834350586,281300
2022-10-19,98.70999908447266,99.20999908447266,97.58999633789062,98.20999908447266,96.86918640136719,359500
2022-10-20,98.08000183105469,98.69999694824219,95.43000030517578,96.06999969482422,94.7583999633789,185600
2022-10-21,95.55999755859375,97.91999816894531,94.52999877929688,97.5199966430664,96.18860626220703,176400
2022-10-24,97.9000015258789,98.80000305175781,97.2699966430664,97.88999938964844,96.55355834960938,158500
2022-10-25,96.47000122070312,99.43000030517578,95.97000122070312,99.20999908447266,98.23688507080078,292500
2022-10-26,99.8499984741211,101.05000305175781,98.95999908447266,99.08999633789062,98.11805725097656,271900
2022-10-27,99.11000061035156,100.63999938964844,98.87000274658203,99.08999633789062,98.11805725097656,216700
2022-10-28,101.94999694824219,104.12000274658203,99.22000122070312,101.12999725341797,100.1380386352539,445300
2022-10-31,99.95999908447266,100.5999984741211,99.0999984741211,99.1500015258789,98.1774673461914,372900
2022-11-01,99.5999984741211,99.5999984741211,96.87999725341797,97.22000122070312,96.26640319824219,301300
2022-11-02,97.19000244140625,97.75,94.56999969482422,94.76000213623047,93.83053588867188,268400
2022-11-03,94.27999877929688,95.0199966430664,92.55000305175781,94.70999908447266,93.78101348876953,278300
2022-11-04,96.44000244140625,98.77999877929688,96.2300033569336,98.7699966430664,97.80119323730469,209100
2022-11-07,99.19000244140625,100.5199966430664,97.9800033569336,100.48999786376953,99.50432586669922,180700
2022-11-08,101.0,101.76000213623047,100.12999725341797,100.3499984741211,99.3656997680664,153100
2022-11-09,100.2300033569336,100.87999725341797,98.55000305175781,99.12000274658203,98.14776611328125,165300
2022-11-10,102.83000183105469,103.25,101.04000091552734,102.33000183105469,101.32627868652344,266000
2022-11-11,102.83999633789062,105.08000183105469,101.45999908447266,104.25,103.2274398803711,292600
2022-11-14,103.61000061035156,105.2699966430664,103.61000061035156,104.4000015258789,103.37596893310547,238400
2022-11-15,105.83000183105469,107.01000213623047,104.27999877929688,104.69000244140625,103.66313171386719,272500
2022-11-16,104.86000061035156,105.88999938964844,104.69999694824219,104.91999816894531,103.890869140625,139300
2022-11-17,103.70999908447266,105.06999969482422,103.70999908447266,104.61000061035156,103.58391571044922,162700
2022-11-18,106.11000061035156,106.93000030517578,104.61000061035156,106.04000091552734,104.99988555908203,213200
2022-11-21,106.0999984741211,106.69999694824219,104.93000030517578,105.13999938964844,104.10871124267578,193300
2022-11-22,105.23999786376953,106.66000366210938,105.23999786376953,106.0,104.96028137207031,284000
2022-11-23,105.98999786376953,106.77999877929688,105.58000183105469,106.19000244140625,105.1484146118164,202100
2022-11-25,106.55000305175781,106.55000305175781,105.55999755859375,105.91000366210938,104.87117004394531,114700
2022-11-28,105.04000091552734,105.48999786376953,103.23999786376953,103.5,102.48479461669922,208500
2022-11-29,103.0,104.0999984741211,102.93000030517578,103.30999755859375,102.29666137695312,181400
2022-11-30,102.88999938964844,106.18000030517578,101.5,106.13999938964844,105.09890747070312,297900
2022-12-01,106.77999877929688,107.77999877929688,106.51000213623047,107.08999633789062,106.03958129882812,156600
2022-12-02,106.26000213623047,108.55000305175781,106.0999984741211,108.05000305175781,106.99017333984375,167400
2022-12-05,106.86000061035156,106.93000030517578,105.68000030517578,106.69999694824219,105.65341186523438,153800
2022-12-06,106.55000305175781,107.08000183105469,105.37000274658203,107.0,105.95047760009766,247800
2022-12-07,106.7300033569336,108.16000366210938,106.19999694824219,106.30000305175781,105.25733947753906,152800
2022-12-08,106.44999694824219,107.94000244140625,106.44999694824219,107.93000030517578,106.87135314941406,190800
2022-12-09,107.83000183105469,108.9800033569336,107.6500015258789,108.05999755859375,107.00006866455078,316700
2022-12-12,108.45999908447266,108.77999877929688,107.48999786376953,108.08000183105469,107.0198745727539,209100
2022-12-13,110.37999725341797,111.11000061035156,107.58000183105469,108.20999908447266,107.14860534667969,328400
2022-12-14,108.44000244140625,110.27999877929688,107.2300033569336,108.23999786376953,107.17830657958984,302500
2022-12-15,107.69999694824219,108.55000305175781,107.23999786376953,107.6500015258789,106.5940933227539,230000
2022-12-16,107.11000061035156,108.26000213623047,106.38999938964844,107.44000244140625,106.38616180419922,540600
2022-12-19,107.31999969482422,108.36000061035156,105.77999877929688,106.26000213623047,105.21772766113281,269800
2022-12-20,106.43000030517578,108.12999725341797,106.2699966430664,107.12000274658203,106.06929779052734,193300
2022-12-21,107.9800033569336,110.63999938964844,107.56999969482422,110.63999938964844,109.55477142333984,388500
2022-12-22,109.5,110.80000305175781,107.45999908447266,108.55999755859375,107.49517059326172,213800
2022-12-23,109.13999938964844,110.19999694824219,108.3499984741211,110.01000213623047,108.93095397949219,161500
2022-12-27,109.9000015258789,111.0199966430664,109.62999725341797,110.87000274658203,109.78252410888672,101700
2022-12-28,111.05999755859375,111.91000366210938,109.01000213623047,109.16999816894531,108.09918212890625,162700
2022-12-29,109.91999816894531,111.16999816894531,109.37999725341797,110.79000091552734,109.70330047607422,128700
2022-12-30,110.5,110.73999786376953,109.0199966430664,109.9800033569336,108.9012451171875,172300
