,Date,Adj Close,% change
0,2022-01-03,117.9609603881836,0.0
1,2022-01-04,118.50769805908205,0.004634903523159428
2,2022-01-05,120.14794158935548,0.013840818420552736
3,2022-01-06,119.6500244140625,-0.004144200630542438
4,2022-01-07,120.75328826904295,0.009220757458122009
5,2022-01-10,119.161865234375,-0.01317912793498599
6,2022-01-11,119.6207275390625,0.003850747919940556
7,2022-01-12,118.42961120605467,-0.009957440967903075
8,2022-01-13,118.79084014892578,0.003050157297591838
9,2022-01-14,118.31243896484376,-0.004027256508012389
10,2022-01-18,117.5216064453125,-0.006684271970475164
11,2022-01-19,118.5467529296875,0.008723046896504494
12,2022-01-20,116.01805114746094,-0.021330839687582093
13,2022-01-21,113.6260223388672,-0.02061772961134667
14,2022-01-24,114.26065063476562,0.005585237279588817
15,2022-01-25,113.2843017578125,-0.008544926635102312
16,2022-01-26,112.46419525146484,-0.007239365857600766
17,2022-01-27,110.96062469482422,-0.013369326595710884
18,2022-01-28,112.32750701904295,0.012318624989522853
19,2022-01-31,114.52425384521484,0.019556624058250316
20,2022-02-01,114.6999969482422,0.0015345492079335
21,2022-02-02,114.2298355102539,-0.004099053622472648
22,2022-02-03,112.8291473388672,-0.012262016881403714
23,2022-02-04,112.89769744873048,0.00060755674823465
24,2022-02-07,112.38835906982422,-0.004511503692425367
25,2022-02-08,113.67151641845705,0.01141717308850132
26,2022-02-09,114.16126251220705,0.004308432835074649
27,2022-02-10,112.2610321044922,-0.016645141844955136
28,2022-02-11,111.37947082519533,-0.007852780816021032
29,2022-02-14,111.761474609375,0.003429750396096054
30,2022-02-15,111.761474609375,0.0
31,2022-02-16,112.3491668701172,0.0052584512041944365
32,2022-02-17,113.24053192138672,0.007933882164876227
33,2022-02-18,116.01252746582033,0.024478828361191196
34,2022-02-22,116.65899658203124,0.005572407828123405
35,2022-02-23,115.27790832519533,-0.011838677661390351
36,2022-02-24,114.4747085571289,-0.006967508169914205
37,2022-02-25,118.4906768798828,0.03508170820762313
38,2022-02-28,119.38202667236328,0.007522531020597301
39,2022-03-01,116.65899658203124,-0.0228093806599986
40,2022-03-02,115.95375061035156,-0.006045362915356178
41,2022-03-03,116.88428497314452,0.008025047554691911
42,2022-03-04,117.7266616821289,0.007206928708833216
43,2022-03-07,114.13187408447266,-0.03053503383424272
44,2022-03-08,107.93161010742188,-0.05432543736609252
45,2022-03-09,110.94847106933594,0.027951597858231203
46,2022-03-10,109.9591827392578,-0.008916646804982942
47,2022-03-11,109.99837493896484,0.00035642498180421534
48,2022-03-14,112.17285919189452,0.01976833070612405
49,2022-03-15,114.41593170166016,0.019996570702797145
50,2022-03-16,114.59224700927734,0.0015410031190143947
51,2022-03-17,115.98314666748048,0.012137816427410852
52,2022-03-18,115.3268814086914,-0.005658281204169779
53,2022-03-21,116.22802734375,0.007813841179535208
54,2022-03-22,115.25830078125,-0.008343310857646946
55,2022-03-23,112.3198013305664,-0.025494905189176853
56,2022-03-24,113.47561645507812,0.010290395022245935
57,2022-03-25,114.83712005615234,0.011998204051292483
58,2022-03-28,114.1024932861328,-0.0063971194127850906
59,2022-03-29,116.87449645996094,0.024293975477615914
60,2022-03-30,116.38473510742188,-0.0041904895197288905
61,2022-03-31,115.091796875,-0.011109173649177517
62,2022-04-01,116.58063507080078,0.012936093068542487
63,2022-04-04,115.98314666748048,-0.005125108496427666
64,2022-04-05,115.31708526611328,-0.0057427429803812435
65,2022-04-06,115.9145736694336,0.0051812652213807375
66,2022-04-07,117.54055786132812,0.014027435381262165
67,2022-04-08,118.9216537475586,0.011749951772900946
68,2022-04-11,116.52186584472656,-0.020179570559338056
69,2022-04-12,114.61183166503906,-0.01639206655197878
70,2022-04-13,115.46400451660156,0.007435295633814176
71,2022-04-14,114.99384307861328,-0.004071930814773417
72,2022-04-18,111.67332458496094,-0.028875619813682918
73,2022-04-19,114.82732391357422,0.02824308616525273
74,2022-04-20,117.0508041381836,0.019363685826928156
75,2022-04-21,116.50228118896484,-0.004686195479453481
76,2022-04-22,114.2298355102539,-0.019505589551719327
77,2022-04-25,113.03484344482422,-0.010461295510859947
78,2022-04-26,108.67146301269533,-0.038602083208606364
79,2022-04-27,109.1824951171875,0.004702541866326682
80,2022-04-28,110.16522979736328,0.009000844678636488
81,2022-04-29,112.84811401367188,0.024353275722689194
82,2022-05-02,111.43296813964844,-0.01254027049004991
83,2022-05-03,111.8653793334961,0.003880460164228605
84,2022-05-04,114.73497772216795,0.02565224742247496
85,2022-05-05,110.85315704345705,-0.033832931820588996
86,2022-05-06,109.3102569580078,-0.013918413571608057
87,2022-05-09,105.1630859375,-0.037939449928298674
88,2022-05-10,102.7357177734375,-0.023081941181386845
89,2022-05-11,102.26399230957033,-0.004591640318389212
90,2022-05-12,104.6127471923828,0.022967564924537553
91,2022-05-13,105.65445709228516,0.009957772144026045
92,2022-05-16,106.4603042602539,0.007627195199771508
93,2022-05-17,107.07942199707033,0.005815479686239744
94,2022-05-18,102.27381896972656,-0.044878865964323555
95,2022-05-19,101.70384216308594,-0.005573047065049352
96,2022-05-20,97.9989013671875,-0.036428720067010145
97,2022-05-23,102.4212417602539,0.04512642826980828
98,2022-05-24,103.1386260986328,0.007004253473689825
99,2022-05-25,102.6472625732422,-0.004764107725467426
100,2022-05-26,104.69137573242188,0.019913956864861637
101,2022-05-27,107.01063537597656,0.02215330181047981
102,2022-05-31,105.24169921875,-0.016530470555674137
103,2022-06-01,105.39894104003906,0.0014941018860046285
104,2022-06-02,107.93441009521484,0.024055925326731842
105,2022-06-03,106.92218780517578,-0.00937812407689198
106,2022-06-06,107.36441802978516,0.004136000522315886
107,2022-06-07,108.2783660888672,0.0085125787095357
108,2022-06-08,105.85099792480467,-0.022417849952319324
109,2022-06-09,104.00345611572266,-0.017454174691810542
110,2022-06-10,103.38431549072266,-0.005953077408418994
111,2022-06-13,100.24938201904295,-0.030323105171219278
112,2022-06-14,97.80236053466795,-0.024409342333004846
113,2022-06-15,98.63768768310548,0.00854097123904718
114,2022-06-16,93.13433074951172,-0.05579365314477436
115,2022-06-17,95.81722259521484,0.028806690552368508
116,2022-06-21,95.51256561279295,-0.003179563904799565
117,2022-06-22,96.76065063476562,0.013067233760973407
118,2022-06-23,97.22254180908205,0.004773543494037469
119,2022-06-24,100.84884643554688,0.0372990106922515
120,2022-06-27,101.78246307373048,0.00925758371247487
121,2022-06-28,100.9274673461914,-0.008400226342721973
122,2022-06-29,101.60556030273438,0.006718616590437598
123,2022-06-30,101.4286651611328,-0.0017409986330917393
124,2022-07-01,102.6865692138672,0.012401859481597777
125,2022-07-05,101.14366912841795,-0.015025334834547044
126,2022-07-06,100.86849975585938,-0.002720579300017345
127,2022-07-07,101.33039855957033,0.004579217543920322
128,2022-07-08,98.2838897705078,-0.030065102203970295
129,2022-07-11,97.83184051513672,-0.004599423734923502
130,2022-07-12,98.77527618408205,0.009643441889446658
131,2022-07-13,98.9324951171875,0.0015916830524720371
132,2022-07-14,97.5861587524414,-0.01360863650665367
133,2022-07-15,98.2838897705078,0.007149897352107137
134,2022-07-18,96.4068603515625,-0.019098037565751125
135,2022-07-19,99.28630065917967,0.029867587193658673
136,2022-07-20,100.06266021728516,0.007819402605909298
137,2022-07-21,101.69401550292967,0.01630333714996235
138,2022-07-22,101.81192779541016,0.0011594811346307132
139,2022-07-25,102.1264190673828,0.0030889432975338416
140,2022-07-26,102.41246032714844,0.0028008546894893183
141,2022-07-27,104.5824203491211,0.02118843756942157
142,2022-07-28,106.34799194335938,0.016882106843046696
143,2022-07-29,106.28880310058594,-0.0005565581605430081
144,2022-08-01,106.72278594970705,0.004083053308168383
145,2022-08-02,105.134765625,-0.014879861976760944
146,2022-08-03,106.17044830322266,0.009851000970666268
147,2022-08-04,104.98682403564452,-0.011148340112473787
148,2022-08-05,104.2076187133789,-0.007421934413417985
149,2022-08-08,105.80548858642578,0.015333522565579294
150,2022-08-09,105.80548858642578,0.0
151,2022-08-10,108.27135467529295,0.02330565381637051
152,2022-08-11,108.13327026367188,-0.0012753549822591692
153,2022-08-12,109.56348419189452,0.013226400392175375
154,2022-08-15,110.38214874267578,0.007472056559897355
155,2022-08-16,110.53996276855467,0.001429706050085855
156,2022-08-17,109.51416015625,-0.00927992543703371
157,2022-08-18,109.51416015625,0.0
158,2022-08-19,108.65604400634766,-0.007835663887464595
159,2022-08-22,106.44661712646484,-0.020334136955637128
160,2022-08-23,105.4306869506836,-0.009544034401527957
161,2022-08-24,105.9830322265625,0.005238942207948183
162,2022-08-25,107.4822769165039,0.01414608224018754
163,2022-08-26,102.98453521728516,-0.041846356704117404
164,2022-08-29,102.58013916015624,-0.00392676489024002
165,2022-08-30,102.62945556640624,0.0004807597908695893
166,2022-08-31,101.40637969970705,-0.011917396033615302
167,2022-09-01,101.21897888183594,-0.0018480180283139136
168,2022-09-02,100.04522705078124,-0.011596163526061187
169,2022-09-06,98.96024322509766,-0.010844933413293734
170,2022-09-07,101.83051300048828,0.02900427163322372
171,2022-09-08,103.4579849243164,0.015982163654820525
172,2022-09-09,104.95723724365234,0.014491412339344256
173,2022-09-12,105.6476821899414,0.006578345280623621
174,2022-09-13,102.59986114501952,-0.028848915392599817
175,2022-09-14,102.1658706665039,-0.004229932415816706
176,2022-09-15,103.76374816894533,0.01564003215572174
177,2022-09-16,101.23870086669922,-0.024334580687417895
178,2022-09-19,103.1029052734375,0.018413950305356863
179,2022-09-20,99.79863739013672,-0.03204825193371208
180,2022-09-21,98.30924987792967,-0.014923926329621806
181,2022-09-22,96.7804183959961,-0.015551247556378711
182,2022-09-23,96.740966796875,-0.0004076403034306564
183,2022-09-26,96.08010864257812,-0.006831213044257267
184,2022-09-27,94.74853515625,-0.013858992304865425
185,2022-09-28,96.89877319335938,0.02269415599474356
186,2022-09-29,95.44884490966795,-0.014963329626455857
187,2022-09-30,93.73259735107422,-0.017980810141997816
188,2022-10-03,96.10970306396484,0.0253605018965517
189,2022-10-04,97.87525939941406,0.018370219438449187
190,2022-10-05,96.83959197998048,-0.010581503699593542
191,2022-10-06,96.40560150146484,-0.004481539726079786
192,2022-10-07,92.69692993164062,-0.03846946144273444
193,2022-10-10,93.08161163330078,0.0041498861067335024
194,2022-10-11,93.4465560913086,0.003920693374385609
195,2022-10-12,92.0952606201172,-0.014460623566169839
196,2022-10-13,93.26900482177734,0.012744892557519316
197,2022-10-14,93.78191375732422,0.0054992431464981895
198,2022-10-17,95.9913330078125,0.023559118831862458
199,2022-10-18,97.92457580566406,0.020139764052388154
200,2022-10-19,96.86917877197266,-0.01077765234118444
201,2022-10-20,94.7583999633789,-0.021789993838623012
202,2022-10-21,96.18861389160156,0.015093268024527484
203,2022-10-24,96.55355834960938,0.0037940504935343178
204,2022-10-25,98.23687744140624,0.01743404510998703
205,2022-10-26,98.11805725097656,-0.0012095273539262097
206,2022-10-27,98.11805725097656,0.0
207,2022-10-28,100.13804626464844,0.020587331937330644
208,2022-10-31,98.17747497558594,-0.01957868524697426
209,2022-11-01,96.2664031982422,-0.019465481036449184
210,2022-11-02,93.83053588867188,-0.02530340002995779
211,2022-11-03,93.78101348876952,-0.0005277855383999386
212,2022-11-04,97.80119323730467,0.04286773621844664
213,2022-11-07,99.50432586669922,0.01741423159594868
214,2022-11-08,99.3656997680664,-0.001393166552562941
215,2022-11-09,98.14776611328124,-0.012257083255368784
216,2022-11-10,101.32627868652344,0.03238497114212047
217,2022-11-11,103.2274398803711,0.018762765380236024
218,2022-11-14,103.3759765625,0.001438926338781954
219,2022-11-15,103.66312408447266,0.0027777006952776073
220,2022-11-16,103.890869140625,0.0021969727245221282
221,2022-11-17,103.58391571044922,-0.002954575630321199
222,2022-11-18,104.99988555908205,0.013669784917099692
223,2022-11-21,104.10871124267578,-0.008487383692478478
224,2022-11-22,104.96028137207033,0.008179624156614107
225,2022-11-23,105.1484146118164,0.0017924231650938705
226,2022-11-25,104.87116241455078,-0.0026367701147865796
227,2022-11-28,102.48480224609376,-0.02275516084225182
228,2022-11-29,102.29666900634766,-0.0018357184248094516
229,2022-11-30,105.09890747070312,0.027393252307966964
230,2022-12-01,106.03958892822266,0.008950439925188958
231,2022-12-02,106.99016571044922,0.008964357480393481
232,2022-12-05,105.65341186523438,-0.01249417492101601
233,2022-12-06,105.95046997070312,0.0028116281360384132
234,2022-12-07,105.25733947753906,-0.006542023771633376
235,2022-12-08,106.87135314941406,0.015333977467855586
236,2022-12-09,107.00006866455078,0.0012043967943098366
237,2022-12-12,107.01988220214844,0.00018517312974597466
238,2022-12-13,107.14860534667967,0.0012027965447400923
239,2022-12-14,107.17830657958984,0.00027719663558922747
240,2022-12-15,106.59410095214844,-0.0054507824025711304
241,2022-12-16,106.38616180419922,-0.0019507566187229042
242,2022-12-19,105.2177276611328,-0.01098295232435298
243,2022-12-20,106.06929779052734,0.008093409241236804
244,2022-12-21,109.55476379394533,0.032860272256174605
245,2022-12-22,107.49517059326172,-0.018799668123582136
246,2022-12-23,108.93094635009766,0.013356653595802959
247,2022-12-27,109.7825164794922,0.007817522549172118
248,2022-12-28,108.09918212890624,-0.015333355479243527
249,2022-12-29,109.70330047607422,0.014839319924318195
250,2022-12-30,108.90125274658205,-0.0073110628942936184
